   ATMOSPHERIC ABUNDANCES AT LEVELS
 LVL  P(BARS)     TEMP    MU      H2     HE       CH4      CO       CO2        NH3          N2        H2O        TiO        VO        FeH    H2S
   1 1.2589E-04   589.7 2.360  0.8363 0.1624 3.939E-04 7.834E-06 2.295E-07 3.971E-08 6.856E-05 7.565E-04 4.501E-38 1.600E-37 1.664E-32 2.539E-05
   2 1.6056E-04   596.0 2.359  0.8363 0.1624 3.876E-04 7.467E-06 1.997E-07 4.539E-08 6.855E-05 7.499E-04 4.501E-38 2.463E-37 3.812E-32 2.539E-05
   3 2.0477E-04   603.1 2.359  0.8363 0.1624 3.898E-04 7.772E-06 1.896E-07 5.118E-08 6.855E-05 7.504E-04 4.501E-38 3.826E-37 9.808E-32 2.539E-05
   4 2.6116E-04   611.0 2.360  0.8363 0.1624 4.029E-04 8.776E-06 1.962E-07 5.713E-08 6.855E-05 7.599E-04 4.501E-38 5.856E-37 2.752E-31 2.539E-05
   5 3.3308E-04   619.5 2.360  0.8363 0.1624 4.163E-04 1.019E-05 2.078E-07 6.336E-08 6.854E-05 7.699E-04 4.501E-38 8.720E-37 8.175E-31 2.539E-05
   6 4.2481E-04   628.4 2.360  0.8363 0.1624 4.186E-04 1.147E-05 2.109E-07 7.018E-08 6.854E-05 7.723E-04 4.501E-38 1.241E-36 2.455E-30 2.539E-05
   7 5.4179E-04   637.5 2.361  0.8363 0.1624 4.242E-04 1.310E-05 2.182E-07 7.767E-08 6.853E-05 7.779E-04 4.501E-38 1.672E-36 7.425E-30 2.539E-05
   8 6.9100E-04   646.9 2.361  0.8362 0.1624 4.334E-04 1.514E-05 2.293E-07 8.599E-08 6.854E-05 7.870E-04 4.501E-38 2.127E-36 2.242E-29 2.539E-05
   9 8.8128E-04   656.5 2.360  0.8363 0.1624 4.139E-04 1.583E-05 2.128E-07 9.520E-08 6.853E-05 7.742E-04 7.743E-38 6.134E-36 6.655E-29 2.539E-05
  10 1.1240E-03   665.8 2.360  0.8363 0.1624 3.960E-04 1.595E-05 1.899E-07 1.062E-07 6.852E-05 7.561E-04 1.540E-37 2.411E-35 1.841E-28 2.539E-05
  11 1.4335E-03   674.9 2.359  0.8363 0.1624 3.835E-04 1.600E-05 1.709E-07 1.191E-07 6.851E-05 7.440E-04 2.762E-37 8.834E-35 4.859E-28 2.539E-05
  12 1.8283E-03   684.4 2.359  0.8363 0.1624 3.829E-04 1.682E-05 1.633E-07 1.335E-07 6.850E-05 7.426E-04 4.610E-37 3.229E-34 1.287E-27 2.539E-05
  13 2.3317E-03   694.3 2.360  0.8363 0.1624 3.939E-04 1.874E-05 1.673E-07 1.491E-07 6.849E-05 7.516E-04 7.258E-37 1.221E-33 3.507E-27 2.539E-05
  14 2.9739E-03   705.0 2.361  0.8363 0.1624 4.180E-04 2.229E-05 1.850E-07 1.658E-07 6.849E-05 7.717E-04 1.081E-36 4.853E-33 9.958E-27 2.539E-05
  15 3.7928E-03   716.2 2.361  0.8363 0.1624 4.206E-04 2.487E-05 1.871E-07 1.838E-07 6.847E-05 7.740E-04 1.551E-36 2.025E-32 2.902E-26 2.539E-05
  16 4.8373E-03   727.9 2.361  0.8363 0.1624 4.110E-04 2.690E-05 1.814E-07 2.032E-07 6.846E-05 7.682E-04 2.958E-36 8.663E-32 8.582E-26 2.540E-05
  17 6.1694E-03   740.0 2.360  0.8363 0.1624 3.781E-04 2.676E-05 1.578E-07 2.244E-07 6.844E-05 7.431E-04 1.606E-35 3.730E-31 2.530E-25 2.541E-05
  18 7.8683E-03   752.5 2.359  0.8363 0.1624 3.704E-04 2.909E-05 1.532E-07 2.476E-07 6.843E-05 7.344E-04 8.684E-35 1.607E-30 7.516E-25 2.542E-05
  19 1.0035E-02   766.4 2.360  0.8363 0.1624 3.852E-04 3.548E-05 1.693E-07 2.708E-07 6.843E-05 7.404E-04 5.191E-34 7.584E-30 2.401E-24 2.542E-05
  20 1.2799E-02   781.8 2.360  0.8363 0.1624 3.800E-04 4.254E-05 1.794E-07 2.926E-07 6.840E-05 7.350E-04 3.690E-33 4.162E-29 8.489E-24 2.543E-05
  21 1.6323E-02   799.5 2.360  0.8363 0.1624 3.823E-04 5.590E-05 2.085E-07 3.115E-07 6.840E-05 7.372E-04 3.174E-32 2.707E-28 3.401E-23 2.543E-05
  22 2.0818E-02   819.7 2.359  0.8364 0.1624 3.126E-04 6.041E-05 1.850E-07 3.250E-07 6.838E-05 6.927E-04 3.571E-31 2.207E-27 1.568E-22 2.580E-05
  23 2.6551E-02   841.4 2.358  0.8364 0.1624 2.832E-04 7.459E-05 1.895E-07 3.377E-07 6.838E-05 6.595E-04 4.202E-30 1.876E-26 7.478E-22 2.620E-05
  24 3.3863E-02   866.2 2.358  0.8364 0.1624 2.662E-04 1.025E-04 2.149E-07 3.453E-07 6.836E-05 6.310E-04 6.066E-29 1.912E-25 4.067E-21 2.656E-05
  25 4.3188E-02   894.3 2.359  0.8365 0.1624 2.507E-04 1.527E-04 2.651E-07 3.477E-07 6.835E-05 6.126E-04 1.059E-27 2.309E-24 2.511E-20 2.677E-05
  26 5.5082E-02   927.8 2.358  0.8365 0.1623 1.753E-04 1.818E-04 2.478E-07 3.400E-07 6.835E-05 5.713E-04 2.655E-26 3.816E-23 1.912E-19 2.678E-05
  27 7.0250E-02   964.5 2.358  0.8366 0.1623 1.318E-04 2.327E-04 2.440E-07 3.310E-07 6.835E-05 5.233E-04 7.103E-25 6.654E-22 1.505E-18 2.693E-05
  28 8.9596E-02  1009.0 2.360  0.8367 0.1623 1.010E-04 3.402E-04 2.653E-07 3.122E-07 6.838E-05 4.721E-04 2.862E-23 1.662E-20 1.520E-17 2.724E-05
  29 1.1427E-01  1063.4 2.359  0.8367 0.1623 5.034E-05 3.724E-04 2.134E-07 2.842E-07 6.838E-05 4.274E-04 1.717E-21 5.898E-19 1.964E-16 2.724E-05
  30 1.4574E-01  1131.4 2.359  0.8368 0.1623 2.173E-05 4.207E-04 1.758E-07 2.484E-07 6.838E-05 3.925E-04 1.659E-19 3.198E-17 3.445E-15 2.723E-05
  31 1.8587E-01  1212.7 2.359  0.8368 0.1623 8.088E-06 4.506E-04 1.393E-07 2.130E-07 6.840E-05 3.676E-04 1.953E-17 2.070E-15 6.887E-14 2.722E-05
  32 2.3706E-01  1298.9 2.359  0.8368 0.1623 3.119E-06 4.606E-04 1.120E-07 1.879E-07 6.842E-05 3.580E-04 1.506E-15 9.285E-14 1.077E-12 2.720E-05
  33 3.0234E-01  1390.1 2.359  0.8368 0.1623 1.301E-06 4.632E-04 9.245E-08 1.703E-07 6.844E-05 3.558E-04 7.926E-14 2.986E-12 1.347E-11 2.712E-05
  34 3.8559E-01  1486.6 2.360  0.8368 0.1623 5.867E-07 4.635E-04 7.922E-08 1.583E-07 6.843E-05 3.620E-04 2.673E-12 7.061E-11 1.371E-10 2.647E-05
  35 4.9178E-01  1588.3 2.360  0.8367 0.1623 2.692E-07 4.641E-04 7.518E-08 1.509E-07 6.842E-05 4.006E-04 5.896E-11 1.215E-09 1.151E-09 2.418E-05
  36 6.2721E-01  1695.3 2.361  0.8364 0.1622 1.251E-07 4.644E-04 7.845E-08 1.470E-07 6.842E-05 4.800E-04 9.375E-10 6.579E-09 8.086E-09 2.276E-05
  37 7.9993E-01  1807.2 2.362  0.8362 0.1622 7.497E-08 4.645E-04 7.058E-08 1.465E-07 6.841E-05 4.888E-04 1.225E-08 7.194E-09 3.994E-08 2.249E-05
  38 1.0202E+00  1948.2 2.363  0.8356 0.1622 4.192E-08 4.644E-04 6.183E-08 1.426E-07 6.840E-05 4.882E-04 1.073E-07 5.966E-09 8.619E-08 2.190E-05
  39 1.3012E+00  2048.4 2.361  0.8347 0.1621 3.501E-08 4.641E-04 5.705E-08 1.535E-07 6.835E-05 4.877E-04 1.481E-07 4.842E-09 1.101E-07 2.117E-05
  40 1.6595E+00  2105.9 2.361  0.8342 0.1620 4.003E-08 4.640E-04 5.470E-08 1.790E-07 6.831E-05 4.874E-04 1.469E-07 4.247E-09 1.325E-07 2.086E-05
  41 2.1165E+00  2141.8 2.361  0.8341 0.1620 5.280E-08 4.639E-04 5.334E-08 2.165E-07 6.829E-05 4.873E-04 1.462E-07 3.929E-09 1.555E-07 2.090E-05
  42 2.6993E+00  2160.9 2.361  0.8342 0.1620 7.708E-08 4.639E-04 5.267E-08 2.686E-07 6.826E-05 4.874E-04 1.455E-07 3.754E-09 1.791E-07 2.107E-05
  43 3.4427E+00  2182.3 2.361  0.8341 0.1620 1.113E-07 4.638E-04 5.195E-08 3.323E-07 6.821E-05 4.874E-04 1.445E-07 3.557E-09 2.067E-07 2.112E-05
  44 4.3907E+00  2184.7 2.361  0.8343 0.1620 1.787E-07 4.636E-04 5.187E-08 4.223E-07 6.814E-05 4.877E-04 1.444E-07 3.537E-09 2.340E-07 2.135E-05
  45 5.5999E+00  2313.2 2.359  0.8326 0.1619 1.493E-07 4.633E-04 4.802E-08 4.539E-07 6.805E-05 4.868E-04 1.380E-07 2.603E-09 2.987E-07 2.039E-05
  46 7.1420E+00  2442.8 2.355  0.8302 0.1617 1.336E-07 4.627E-04 4.488E-08 4.957E-07 6.793E-05 4.855E-04 1.287E-07 1.924E-09 3.769E-07 1.925E-05
  47 9.1088E+00  2572.5 2.351  0.8267 0.1614 1.272E-07 4.619E-04 4.230E-08 5.491E-07 6.778E-05 4.839E-04 1.167E-07 1.445E-09 4.700E-07 1.800E-05
  48 1.1617E+01  2702.0 2.343  0.8213 0.1609 1.275E-07 4.604E-04 4.014E-08 6.144E-07 6.749E-05 4.815E-04 1.027E-07 1.106E-09 5.789E-07 1.652E-05
  49 1.4816E+01  2830.2 2.335  0.8156 0.1604 1.341E-07 4.589E-04 3.833E-08 6.954E-07 6.716E-05 4.791E-04 8.972E-08 8.672E-10 7.058E-07 1.521E-05
  50 1.8896E+01  2957.8 2.325  0.8084 0.1598 1.467E-07 4.569E-04 3.679E-08 7.930E-07 6.678E-05 4.759E-04 7.654E-08 6.916E-10 8.525E-07 1.395E-05
  51 2.4100E+01  3085.0 2.312  0.7994 0.1590 1.656E-07 4.546E-04 3.546E-08 9.092E-07 6.631E-05 4.718E-04 6.429E-08 5.606E-10 1.020E-06 1.282E-05
  52 3.0737E+01  3211.8 2.305  0.7925 0.1584 1.937E-07 4.527E-04 3.434E-08 1.055E-06 6.590E-05 4.693E-04 5.412E-08 4.625E-10 1.216E-06 1.206E-05
  53 3.9201E+01  3339.2 2.286  0.7803 0.1573 2.286E-07 4.491E-04 3.330E-08 1.215E-06 6.504E-05 4.643E-04 4.496E-08 3.856E-10 1.431E-06 1.098E-05
  54 4.9997E+01  3468.3 2.273  0.7701 0.1564 2.767E-07 4.461E-04 3.242E-08 1.413E-06 6.426E-05 4.606E-04 3.748E-08 3.255E-10 1.681E-06 1.021E-05
  55 6.3765E+01  3598.7 2.254  0.7570 0.1552 3.397E-07 4.424E-04 3.156E-08 1.639E-06 6.329E-05 4.546E-04 3.096E-08 2.763E-10 1.958E-06 9.489E-06
  56 8.1325E+01  3731.6 2.246  0.7481 0.1544 4.279E-07 4.398E-04 3.089E-08 1.925E-06 6.248E-05 4.517E-04 2.580E-08 2.375E-10 2.283E-06 9.076E-06
  57 1.0372E+02  3868.2 2.230  0.7361 0.1534 5.427E-07 4.360E-04 3.017E-08 2.248E-06 6.126E-05 4.460E-04 2.125E-08 2.042E-10 2.642E-06 8.618E-06
  58 1.3228E+02  4008.4 2.215  0.7239 0.1523 6.898E-07 4.308E-04 2.949E-08 2.620E-06 5.962E-05 4.418E-04 1.768E-08 1.774E-10 3.038E-06 8.124E-06
  59 1.6871E+02  4153.1 2.213  0.7170 0.1517 8.980E-07 4.272E-04 2.900E-08 3.099E-06 5.826E-05 4.414E-04 1.491E-08 1.558E-10 3.509E-06 7.906E-06
  60 2.1517E+02  4307.4 2.224  0.7144 0.1514 1.187E-06 4.250E-04 2.865E-08 3.705E-06 5.713E-05 4.442E-04 1.265E-08 1.376E-10 4.070E-06 7.898E-06
  61 2.7443E+02  4472.0 2.246  0.7160 0.1515 1.594E-06 4.242E-04 2.844E-08 4.480E-06 5.621E-05 4.503E-04 1.082E-08 1.222E-10 4.742E-06 8.100E-06
 check           1          60           1
           0
 Ackerman:
 
 Teff =         1000  K
 grav =          398  m/s^2
 
 condensing gas = Mg2SiO4   
 
  P(bar)   z(m)     T(K) kz(cm^2/s)   chf   reff(um) qc(g/g) col_opd cloudf t_dyn(days)
 1.43E-04 2.23E+05  589.9  14.E+07  27.E+03  14.E-02  80.E-11  23.E-09     1.     0.
 1.83E-04 2.22E+05  596.6  15.E+07  27.E+03  18.E-02  18.E-10  74.E-09     1.     0.
 2.33E-04 2.21E+05  604.0  16.E+07  27.E+03  21.E-02  35.E-10  18.E-08     1.     0.
 2.97E-04 2.20E+05  612.2  16.E+07  27.E+03  26.E-02  68.E-10  41.E-08     1.     0.
 3.79E-04 2.18E+05  620.8  16.E+07  27.E+03  30.E-02  13.E-09  86.E-08     1.     0.
 4.83E-04 2.17E+05  629.7  15.E+07  27.E+03  36.E-02  24.E-09  18.E-07     1.     0.
 6.16E-04 2.15E+05  638.9  15.E+07  27.E+03  42.E-02  43.E-09  36.E-07     1.     0.
 7.86E-04 2.14E+05  648.4  14.E+07  27.E+03  50.E-02  79.E-09  71.E-07     1.     0.
 1.00E-03 2.13E+05  657.8  12.E+07  27.E+03  58.E-02  15.E-08  14.E-06     1.     0.
 1.28E-03 2.11E+05  667.0  11.E+07  27.E+03  67.E-02  27.E-08  29.E-06     1.     0.
 1.63E-03 2.10E+05  676.2  11.E+07  27.E+03  79.E-02  52.E-08  59.E-06     1.     0.
 2.08E-03 2.08E+05  685.9  11.E+07  27.E+03  94.E-02  96.E-08  12.E-05     1.     0.
 2.65E-03 2.07E+05  696.1  11.E+07  27.E+03  11.E-01  17.E-07  24.E-05     1.     0.
 3.38E-03 2.05E+05  706.9  11.E+07  27.E+03  13.E-01  31.E-07  46.E-05     1.     0.
 4.32E-03 2.04E+05  718.3  10.E+07  27.E+03  15.E-01  53.E-07  88.E-05     1.     0.
 5.50E-03 2.02E+05  730.2  10.E+07  27.E+03  18.E-01  91.E-07  17.E-04     1.     0.
 7.02E-03 2.01E+05  742.5  96.E+06  27.E+03  21.E-01  15.E-06  32.E-04     1.     0.
 8.95E-03 1.99E+05  755.5  10.E+07  27.E+03  24.E-01  25.E-06  58.E-04     1.     0.
 1.14E-02 1.97E+05  769.9  11.E+07  27.E+03  28.E-01  40.E-06  11.E-03     1.     0.
 1.46E-02 1.96E+05  786.1  12.E+07  27.E+03  32.E-01  61.E-06  19.E-03     1.     0.
 1.86E-02 1.94E+05  804.8  13.E+07  27.E+03  36.E-01  89.E-06  32.E-03     1.     0.
 2.37E-02 1.92E+05  825.6  13.E+07  27.E+03  39.E-01  12.E-05  53.E-03     1.     0.
 3.02E-02 1.90E+05  848.4  14.E+07  27.E+03  42.E-01  17.E-05  89.E-03     1.     0.
 3.85E-02 1.89E+05  874.1  16.E+07  27.E+03  44.E-01  23.E-05  15.E-02     1.     0.
 4.91E-02 1.87E+05  904.1  18.E+07  27.E+03  47.E-01  30.E-05  23.E-02     1.     0.
 6.27E-02 1.85E+05  938.4  19.E+07  27.E+03  49.E-01  38.E-05  37.E-02     1.     0.
 7.99E-02 1.83E+05  977.3  22.E+07  27.E+03  51.E-01  46.E-05  58.E-02     1.     0.
 1.02E-01 1.80E+05 1024.8  28.E+07  27.E+03  54.E-01  56.E-05  88.E-02     1.     0.
 1.30E-01 1.78E+05 1076.9  25.E+07  27.E+03  53.E-01  66.E-05  13.E-01     1.     0.
 1.66E-01 1.76E+05 1143.3  98.E+06  35.E+01  25.E-01  77.E-05  28.E-01     1.     0.
 2.11E-01 1.73E+05 1225.3  99.E+06  35.E+01  26.E-01  86.E-05  48.E-01     1.     0.
 2.70E-01 1.71E+05 1312.3  11.E+08  53.E+04  98.E-01  98.E-05  55.E-01     1.     0.
 3.44E-01 1.68E+05 1404.3  21.E+08  33.E+05  13.E+00  11.E-04  63.E-01     1.     0.
 4.39E-01 1.64E+05 1501.5  29.E+08  83.E+05  16.E+00  12.E-04  73.E-01     1.     0.
 5.59E-01 1.61E+05 1604.0  38.E+08  18.E+06  18.E+00  14.E-04  86.E-01     1.     0.
 7.14E-01 1.58E+05 1711.6  40.E+08  21.E+06  18.E+00  16.E-04  10.E+00     1.     0.
 9.10E-01 1.54E+05 1839.0  44.E+07  27.E+03  58.E-01  12.E-04  16.E+00     1.     0.
 1.16E+00 1.50E+05 1967.1  41.E+07  27.E+03  00.E+00  00.E+00  16.E+00     1.     0.
 1.48E+00 1.45E+05 2065.2  25.E+07  27.E+03  00.E+00  00.E+00  17.E+00     1.     0.
 1.89E+00 1.41E+05 2144.3  20.E+07  26.E+03  00.E+00  00.E+00  17.E+00     1.     0.
 2.41E+00 1.36E+05 2213.7  14.E+07  23.E+03  00.E+00  00.E+00  17.E+00     1.     0.
 3.07E+00 1.31E+05 2264.6  17.E+06  35.E+01  00.E+00  00.E+00  17.E+00     1.     3.
 3.92E+00 1.26E+05 2287.7  22.E+05  35.E+01  00.E+00  00.E+00  17.E+00     1.    22.
 5.00E+00 1.21E+05 2359.9  73.E+06  35.E+01  00.E+00  00.E+00  17.E+00     1.     1.
 6.37E+00 1.16E+05 2488.1  69.E+06  35.E+01  00.E+00  00.E+00  17.E+00     1.     1.
 8.13E+00 1.11E+05 2615.9  65.E+06  35.E+01  00.E+00  00.E+00  17.E+00     1.     1.
 1.04E+01 1.05E+05 2742.8  61.E+06  35.E+01  00.E+00  00.E+00  17.E+00     1.     1.
 1.32E+01 9.87E+04 2868.3  17.E+08  86.E+05  00.E+00  00.E+00  17.E+00     1.     0.
 1.69E+01 9.24E+04 2993.1  22.E+08  24.E+06  00.E+00  00.E+00  17.E+00     1.     0.
 2.15E+01 8.58E+04 3117.5  24.E+08  34.E+06  00.E+00  00.E+00  17.E+00     1.     0.
 2.74E+01 7.89E+04 3241.6  24.E+08  42.E+06  00.E+00  00.E+00  17.E+00     1.     0.
 3.50E+01 7.18E+04 3366.6  24.E+08  47.E+06  00.E+00  00.E+00  17.E+00     1.     0.
 4.46E+01 6.44E+04 3493.2  24.E+08  50.E+06  00.E+00  00.E+00  17.E+00     1.     0.
 5.69E+01 5.67E+04 3621.3  24.E+08  52.E+06  00.E+00  00.E+00  17.E+00     1.     0.
 7.25E+01 4.88E+04 3752.1  24.E+08  54.E+06  00.E+00  00.E+00  17.E+00     1.     0.
 9.25E+01 4.05E+04 3886.8  24.E+08  55.E+06  00.E+00  00.E+00  17.E+00     1.     0.
 1.18E+02 3.20E+04 4025.0  24.E+08  55.E+06  00.E+00  00.E+00  17.E+00     1.     0.
 1.50E+02 2.32E+04 4169.0  24.E+08  56.E+06  00.E+00  00.E+00  17.E+00     1.     0.
 1.92E+02 1.40E+04 4321.8  24.E+08  56.E+06  00.E+00  00.E+00  17.E+00     1.     0.
 2.45E+02 4.54E+03 4484.8  24.E+08  57.E+06  00.E+00  00.E+00  17.E+00     1.     0.
