  ATMOSPHERIC ABUNDANCES AT LEVELS
 LVL  P(BARS)     TEMP    MU      H2     HE       CH4      CO       CO2        NH3          N2        H2O        TiO        VO        FeH    H2S
   1 1.0000E-06   554.1 2.355  0.8367 0.1623 2.444E-05 2.555E-04 7.109E-06 6.156E-10 6.854E-05 4.298E-04 4.501E-38 4.501E-38 7.036E-34 2.537E-05
   2 1.4100E-06   554.0 2.354  0.8367 0.1623 3.886E-05 2.103E-04 6.104E-06 8.703E-10 6.854E-05 4.475E-04 4.501E-38 4.501E-38 6.056E-34 2.537E-05
   3 2.0000E-06   554.2 2.354  0.8366 0.1623 6.144E-05 1.747E-04 5.250E-06 1.229E-09 6.855E-05 4.647E-04 4.501E-38 4.501E-38 5.495E-34 2.537E-05
   4 2.8200E-06   555.4 2.354  0.8366 0.1623 9.413E-05 1.540E-04 4.668E-06 1.691E-09 6.855E-05 4.780E-04 4.501E-38 4.501E-38 5.865E-34 2.538E-05
   5 3.9800E-06   558.1 2.355  0.8366 0.1623 1.242E-04 1.350E-04 4.159E-06 2.265E-09 6.855E-05 5.061E-04 4.501E-38 4.501E-38 7.693E-34 2.538E-05
   6 5.6200E-06   562.0 2.356  0.8365 0.1623 1.602E-04 1.288E-04 3.992E-06 2.964E-09 6.855E-05 5.401E-04 4.501E-38 4.501E-38 1.193E-33 2.538E-05
   7 7.9400E-06   566.7 2.357  0.8365 0.1623 2.130E-04 1.353E-04 4.202E-06 3.828E-09 6.856E-05 5.805E-04 4.501E-38 4.501E-38 2.020E-33 2.538E-05
   8 1.1220E-05   572.3 2.359  0.8365 0.1624 2.728E-04 1.458E-04 4.478E-06 4.871E-09 6.856E-05 6.232E-04 4.501E-38 4.501E-38 3.746E-33 2.538E-05
   9 1.5850E-05   578.3 2.359  0.8364 0.1624 2.660E-04 1.186E-04 3.477E-06 6.158E-09 6.857E-05 6.475E-04 4.501E-38 6.739E-38 7.744E-33 2.538E-05
  10 2.2390E-05   583.6 2.358  0.8364 0.1624 2.558E-04 8.815E-05 2.462E-06 7.896E-09 6.857E-05 6.634E-04 4.501E-38 1.213E-37 1.506E-32 2.539E-05
  11 3.1620E-05   588.4 2.358  0.8364 0.1624 2.648E-04 6.708E-05 1.786E-06 1.023E-08 6.857E-05 6.748E-04 4.501E-38 1.941E-37 2.681E-32 2.539E-05
  12 4.4670E-05   592.9 2.357  0.8364 0.1624 2.629E-04 4.660E-05 1.161E-06 1.333E-08 6.857E-05 6.709E-04 4.501E-38 2.831E-37 4.528E-32 2.539E-05
  13 6.3100E-05   597.3 2.357  0.8364 0.1624 2.773E-04 3.427E-05 8.109E-07 1.744E-08 6.856E-05 6.750E-04 4.501E-38 3.846E-37 7.407E-32 2.539E-05
  14 8.9120E-05   601.8 2.358  0.8364 0.1624 3.081E-04 2.702E-05 6.119E-07 2.277E-08 6.856E-05 6.853E-04 4.501E-38 5.029E-37 1.233E-31 2.539E-05
  15 1.2589E-04   607.0 2.358  0.8363 0.1624 3.308E-04 2.146E-05 4.626E-07 2.944E-08 6.856E-05 6.970E-04 4.501E-38 6.540E-37 2.225E-31 2.539E-05
  16 1.7783E-04   612.7 2.359  0.8363 0.1624 3.516E-04 1.754E-05 3.611E-07 3.781E-08 6.855E-05 7.151E-04 4.501E-38 8.300E-37 4.272E-31 2.539E-05
  17 2.5119E-04   619.1 2.359  0.8363 0.1624 3.852E-04 1.559E-05 3.084E-07 4.809E-08 6.855E-05 7.433E-04 4.501E-38 1.032E-36 8.920E-31 2.539E-05
  18 3.5481E-04   626.5 2.360  0.8363 0.1624 4.123E-04 1.422E-05 2.650E-07 6.033E-08 6.854E-05 7.659E-04 4.501E-38 1.278E-36 2.094E-30 2.539E-05
  19 5.0119E-04   634.5 2.361  0.8363 0.1624 4.221E-04 1.249E-05 2.148E-07 7.526E-08 6.853E-05 7.758E-04 4.501E-38 1.525E-36 5.171E-30 2.539E-05
  20 7.0795E-04   643.3 2.361  0.8362 0.1624 4.361E-04 1.155E-05 1.830E-07 9.306E-08 6.853E-05 7.898E-04 4.501E-38 1.742E-36 1.376E-29 2.539E-05
  21 1.0000E-03   653.1 2.361  0.8362 0.1624 4.418E-04 1.093E-05 1.569E-07 1.136E-07 6.853E-05 7.971E-04 5.778E-38 2.908E-36 4.059E-29 2.539E-05
  22 1.4125E-03   663.7 2.360  0.8363 0.1624 4.143E-04 9.501E-06 1.182E-07 1.375E-07 6.850E-05 7.727E-04 1.240E-37 1.318E-35 1.267E-28 2.539E-05
  23 1.9953E-03   675.7 2.360  0.8363 0.1624 4.075E-04 9.415E-06 1.027E-07 1.640E-07 6.848E-05 7.656E-04 2.517E-37 7.045E-35 4.482E-28 2.539E-05
  24 2.8184E-03   689.8 2.361  0.8363 0.1624 4.228E-04 1.112E-05 1.072E-07 1.912E-07 6.847E-05 7.776E-04 4.914E-37 4.901E-34 1.929E-27 2.539E-05
  25 3.9811E-03   706.8 2.361  0.8362 0.1624 4.276E-04 1.424E-05 1.176E-07 2.166E-07 6.845E-05 7.813E-04 9.431E-37 4.797E-33 1.055E-26 2.539E-05
  26 5.6234E-03   727.5 2.361  0.8363 0.1624 4.211E-04 2.024E-05 1.385E-07 2.373E-07 6.844E-05 7.774E-04 2.368E-36 7.006E-32 7.650E-26 2.540E-05
  27 7.9433E-03   750.3 2.360  0.8363 0.1624 3.773E-04 2.636E-05 1.426E-07 2.564E-07 6.843E-05 7.406E-04 6.091E-35 1.175E-30 6.042E-25 2.542E-05
  28 1.1220E-02   775.8 2.360  0.8363 0.1624 3.784E-04 4.223E-05 1.858E-07 2.734E-07 6.842E-05 7.334E-04 1.815E-33 2.257E-29 5.332E-24 2.543E-05
  29 1.5849E-02   804.9 2.360  0.8363 0.1624 3.492E-04 6.595E-05 2.298E-07 2.862E-07 6.841E-05 7.149E-04 6.875E-32 5.348E-28 5.436E-23 2.553E-05
  30 2.2387E-02   832.8 2.358  0.8364 0.1624 2.770E-04 7.393E-05 1.988E-07 3.085E-07 6.839E-05 6.615E-04 1.747E-30 8.823E-27 4.212E-22 2.605E-05
  31 3.1623E-02   858.1 2.358  0.8364 0.1624 2.752E-04 9.229E-05 2.059E-07 3.460E-07 6.837E-05 6.408E-04 2.561E-29 9.025E-26 2.358E-21 2.647E-05
  32 4.4668E-02   879.7 2.358  0.8364 0.1624 2.767E-04 1.002E-04 1.974E-07 4.056E-07 6.831E-05 6.411E-04 2.049E-28 5.436E-25 9.150E-21 2.654E-05
  33 6.3096E-02   900.0 2.360  0.8364 0.1624 3.035E-04 1.141E-04 2.088E-07 4.847E-07 6.829E-05 6.663E-04 1.244E-27 2.582E-24 3.038E-20 2.644E-05
  34 8.9125E-02   923.6 2.359  0.8364 0.1624 2.791E-04 1.113E-04 1.780E-07 5.679E-07 6.826E-05 6.566E-04 9.751E-27 1.524E-23 1.156E-19 2.637E-05
  35 1.2589E-01   950.9 2.358  0.8364 0.1624 2.578E-04 1.145E-04 1.540E-07 6.529E-07 6.817E-05 6.300E-04 9.876E-26 1.122E-22 5.108E-19 2.660E-05
  36 1.7783E-01   978.4 2.359  0.8364 0.1624 2.576E-04 1.267E-04 1.496E-07 7.586E-07 6.811E-05 6.268E-04 8.539E-25 7.230E-22 2.078E-18 2.694E-05
  37 2.5119E-01  1004.8 2.360  0.8364 0.1624 2.815E-04 1.480E-04 1.613E-07 8.975E-07 6.809E-05 6.481E-04 5.665E-24 3.710E-21 7.277E-18 2.725E-05
  38 3.5481E-01  1028.4 2.359  0.8364 0.1624 2.695E-04 1.305E-04 1.277E-07 1.087E-06 6.794E-05 6.398E-04 2.784E-23 1.450E-20 2.058E-17 2.725E-05
  39 5.0119E-01  1047.1 2.359  0.8364 0.1624 2.714E-04 1.059E-04 9.720E-08 1.367E-06 6.771E-05 6.444E-04 8.390E-23 3.691E-20 4.322E-17 2.725E-05
  40 7.0795E-01  1061.8 2.359  0.8364 0.1624 3.032E-04 8.871E-05 8.043E-08 1.764E-06 6.753E-05 6.723E-04 1.761E-22 6.867E-20 7.349E-17 2.725E-05
  41 1.0000E+00  1073.2 2.361  0.8363 0.1624 3.647E-04 7.492E-05 6.977E-08 2.330E-06 6.737E-05 7.195E-04 2.734E-22 9.831E-20 1.046E-16 2.725E-05
  42 1.4125E+00  1081.1 2.360  0.8363 0.1624 3.834E-04 4.881E-05 4.538E-08 3.128E-06 6.672E-05 7.387E-04 3.379E-22 1.143E-19 1.265E-16 2.719E-05
  43 1.9953E+00  1086.9 2.361  0.8363 0.1624 4.087E-04 3.083E-05 2.905E-08 4.257E-06 6.612E-05 7.640E-04 3.532E-22 1.148E-19 1.382E-16 2.716E-05
  44 2.8184E+00  1091.3 2.361  0.8362 0.1624 4.396E-04 1.911E-05 1.842E-08 5.840E-06 6.555E-05 7.938E-04 3.327E-22 1.052E-19 1.417E-16 2.717E-05
  45 3.9811E+00  1094.8 2.361  0.8362 0.1624 4.494E-04 1.072E-05 1.033E-08 7.987E-06 6.388E-05 8.034E-04 2.979E-22 9.181E-20 1.390E-16 2.719E-05
  46 5.6234E+00  1098.8 2.361  0.8362 0.1624 4.542E-04 5.984E-06 5.724E-09 1.088E-05 6.214E-05 8.083E-04 2.786E-22 8.318E-20 1.397E-16 2.724E-05
  47 7.9433E+00  1105.2 2.362  0.8362 0.1624 4.578E-04 3.501E-06 3.294E-09 1.465E-05 6.056E-05 8.120E-04 3.050E-22 8.660E-20 1.549E-16 2.726E-05
  48 1.0000E+01  1111.6 2.362  0.8362 0.1624 4.616E-04 2.575E-06 2.384E-09 1.768E-05 5.964E-05 8.158E-04 3.724E-22 1.006E-19 1.813E-16 2.726E-05
  49 1.5849E+01  1135.4 2.362  0.8362 0.1624 4.609E-04 1.708E-06 1.465E-09 2.361E-05 5.454E-05 8.151E-04 1.143E-21 2.566E-19 3.889E-16 2.710E-05
  50 2.2387E+01  1159.8 2.362  0.8362 0.1624 4.617E-04 1.421E-06 1.133E-09 2.881E-05 5.224E-05 8.159E-04 3.835E-21 7.173E-19 8.696E-16 2.709E-05
  51 3.1623E+01  1198.2 2.362  0.8362 0.1624 4.636E-04 1.518E-06 1.086E-09 3.345E-05 5.112E-05 8.179E-04 2.747E-20 3.919E-18 3.134E-15 2.725E-05
  52 4.4668E+01  1250.1 2.362  0.8362 0.1624 4.611E-04 1.932E-06 1.204E-09 3.587E-05 4.696E-05 8.154E-04 3.504E-19 3.562E-17 1.620E-14 2.726E-05
  53 6.3096E+01  1315.4 2.362  0.8362 0.1624 4.588E-04 2.830E-06 1.508E-09 3.843E-05 4.619E-05 8.131E-04 6.848E-18 4.718E-16 1.097E-13 2.726E-05
  54 8.9125E+01  1393.4 2.362  0.8362 0.1624 4.582E-04 4.492E-06 2.036E-09 4.109E-05 4.700E-05 8.125E-04 1.661E-16 7.572E-15 8.558E-13 2.725E-05
  55 1.5000E+02  1540.5 2.361  0.8362 0.1624 4.483E-04 9.830E-06 3.425E-09 4.214E-05 4.414E-05 8.029E-04 2.796E-14 6.783E-13 2.378E-11 2.724E-05
  56 3.0000E+02  1796.0 2.362  0.8362 0.1624 4.361E-04 2.851E-05 7.139E-09 4.589E-05 4.556E-05 7.962E-04 1.976E-11 2.761E-10 2.055E-09 2.703E-05
  57 6.0000E+02  2154.4 2.369  0.8359 0.1624 5.793E-04 1.264E-04 2.691E-08 5.156E-05 4.967E-05 9.117E-04 1.066E-08 5.760E-09 1.478E-07 2.535E-05
  58 9.0000E+02  2385.7 2.374  0.8360 0.1623 7.757E-04 2.138E-04 3.519E-08 5.830E-05 5.099E-05 8.064E-04 1.411E-07 3.327E-09 1.885E-06 2.529E-05
  59 1.3925E+03  2654.2 2.382  0.8364 0.1623 1.053E-03 3.033E-04 3.778E-08 6.918E-05 5.181E-05 6.880E-04 1.194E-07 1.675E-09 5.800E-06 2.544E-05
  60 1.8063E+03  2821.4 2.388  0.8372 0.1624 1.245E-03 3.439E-04 3.742E-08 7.820E-05 5.211E-05 6.387E-04 1.019E-07 1.142E-09 7.302E-06 2.592E-05
  61 1.9000E+03  2854.2 2.390  0.8375 0.1624 1.278E-03 3.490E-04 3.724E-08 8.025E-05 5.214E-05 6.332E-04 9.786E-08 1.067E-09 7.626E-06 2.608E-05
 check           1          60           1
           0
 Ackerman:
 
 Teff =          757  K
 grav =            3  m/s^2
 
 condensing gas = MnS       
 
  P(bar)   z(m)     T(K) kz(cm^2/s)   chf   reff(um) qc(g/g) col_opd cloudf t_dyn(days)
 1.21E-06 2.23E+07  554.0  23.E+08  36.E-01  15.E-03  40.E-22  12.E-19     1.    17.
 1.70E-06 2.21E+07  554.1  22.E+08  45.E-01  21.E-03  11.E-21  48.E-19     1.    18.
 2.41E-06 2.19E+07  554.9  21.E+08  55.E-01  28.E-03  32.E-21  15.E-18     1.    19.
 3.40E-06 2.17E+07  556.9  20.E+08  67.E-01  38.E-03  89.E-21  46.E-18     1.    20.
 4.80E-06 2.15E+07  560.2  19.E+08  83.E-01  51.E-03  25.E-20  14.E-17     1.    21.
 6.78E-06 2.13E+07  564.6  19.E+08  10.E+00  69.E-03  71.E-20  40.E-17     1.    22.
 9.58E-06 2.11E+07  569.8  18.E+08  13.E+00  94.E-03  20.E-19  12.E-16     1.    22.
 1.35E-05 2.09E+07  575.6  18.E+08  17.E+00  13.E-02  56.E-19  34.E-16     1.    23.
 1.91E-05 2.06E+07  581.2  18.E+08  21.E+00  18.E-02  16.E-18  99.E-16     1.    24.
 2.70E-05 2.04E+07  586.2  17.E+08  27.E+00  24.E-02  44.E-18  29.E-15     1.    25.
 3.81E-05 2.02E+07  590.8  17.E+08  33.E+00  32.E-02  12.E-17  85.E-15     1.    27.
 5.39E-05 2.00E+07  595.3  16.E+08  42.E+00  44.E-02  35.E-17  25.E-14     1.    28.
 7.61E-05 1.98E+07  599.7  16.E+08  52.E+00  59.E-02  99.E-17  73.E-14     1.    29.
 1.08E-04 1.96E+07  604.6  15.E+08  65.E+00  81.E-02  28.E-16  21.E-13     1.    31.
 1.52E-04 1.94E+07  610.1  15.E+08  82.E+00  11.E-01  79.E-16  63.E-13     1.    32.
 2.15E-04 1.91E+07  616.2  15.E+08  10.E+01  15.E-01  22.E-15  18.E-12     1.    33.
 3.03E-04 1.89E+07  623.2  17.E+08  13.E+01  21.E-01  57.E-15  49.E-12     1.    29.
 4.28E-04 1.87E+07  630.9  18.E+08  17.E+01  30.E-01  13.E-14  12.E-11     1.    28.
 6.05E-04 1.85E+07  639.3  20.E+08  22.E+01  41.E-01  30.E-14  29.E-11     1.    26.
 8.54E-04 1.82E+07  648.6  23.E+08  27.E+01  57.E-01  62.E-14  64.E-11     1.    24.
 1.21E-03 1.80E+07  658.8  24.E+08  35.E+01  77.E-01  12.E-13  14.E-10     1.    23.
 1.70E-03 1.77E+07  670.2  27.E+08  43.E+01  10.E+00  23.E-13  28.E-10     1.    21.
 2.41E-03 1.75E+07  683.4  33.E+08  54.E+01  14.E+00  39.E-13  55.E-10     1.    18.
 3.40E-03 1.72E+07  699.1  40.E+08  68.E+01  17.E+00  63.E-13  10.E-09     1.    15.
 4.80E-03 1.70E+07  718.1  50.E+08  85.E+01  20.E+00  93.E-13  19.E-09     1.    13.
 6.78E-03 1.67E+07  739.9  55.E+08  11.E+02  23.E+00  13.E-12  34.E-09     1.    13.
 9.58E-03 1.65E+07  764.2  62.E+08  14.E+02  25.E+00  18.E-12  60.E-09     1.    12.
 1.35E-02 1.62E+07  791.6  72.E+08  18.E+02  27.E+00  25.E-12  11.E-08     1.    11.
 1.91E-02 1.59E+07  820.0  66.E+08  23.E+02  28.E+00  34.E-12  19.E-08     1.    13.
 2.70E-02 1.56E+07  846.5  56.E+08  29.E+02  28.E+00  47.E-12  36.E-08     1.    16.
 3.81E-02 1.53E+07  869.8  43.E+08  35.E+02  28.E+00  69.E-12  72.E-08     1.    22.
 5.39E-02 1.50E+07  890.7  38.E+08  41.E+02  27.E+00  11.E-11  15.E-07     1.    27.
 7.61E-02 1.46E+07  912.8  42.E+08  45.E+02  27.E+00  16.E-11  33.E-07     1.    25.
 1.08E-01 1.43E+07  938.4  47.E+08  47.E+02  27.E+00  23.E-11  67.E-07     1.    24.
 1.52E-01 1.39E+07  965.8  43.E+08  50.E+02  26.E+00  32.E-11  14.E-06     1.    27.
 2.15E-01 1.36E+07  992.7  37.E+08  52.E+02  25.E+00  41.E-11  27.E-06     1.    34.
 3.03E-01 1.32E+07 1017.6  29.E+08  54.E+02  24.E+00  49.E-11  51.E-06     1.    45.
 4.28E-01 1.29E+07 1038.6  19.E+08  55.E+02  22.E+00  57.E-11  93.E-06     1.    73.
 6.05E-01 1.25E+07 1055.1  12.E+08  56.E+02  20.E+00  78.E-11  18.E-05     1.   113.
 8.54E-01 1.21E+07 1068.0  78.E+07  56.E+02  18.E+00  15.E-10  45.E-05     1.   185.
 1.21E+00 1.17E+07 1077.5  65.E+07  56.E+02  17.E+00  39.E-10  15.E-04     1.   228.
 1.70E+00 1.13E+07 1084.3  58.E+07  57.E+02  16.E+00  11.E-09  58.E-04     1.   256.
 2.41E+00 1.09E+07 1089.3  52.E+07  57.E+02  15.E+00  31.E-09  24.E-03     1.   288.
 3.40E+00 1.05E+07 1093.2  47.E+07  57.E+02  15.E+00  86.E-09  10.E-02     1.   324.
 4.80E+00 1.01E+07 1097.0  42.E+07  57.E+02  14.E+00  24.E-08  42.E-02     1.   365.
 6.78E+00 9.74E+06 1102.3  37.E+07  57.E+02  13.E+00  68.E-08  18.E-01     1.   411.
 8.97E+00 9.41E+06 1108.6  34.E+07  57.E+02  13.E+00  15.E-07  46.E-01     1.   452.
 1.29E+01 8.98E+06 1123.9  53.E+07  57.E+02  13.E+00  36.E-07  23.E+00     1.   300.
 1.91E+01 8.52E+06 1147.9  86.E+07  57.E+02  13.E+00  68.E-07  61.E+00     1.   194.
 2.70E+01 8.10E+06 1180.7  13.E+08  57.E+02  13.E+00  98.E-07  14.E+01     1.   137.
 3.81E+01 7.66E+06 1226.4  17.E+08  57.E+02  13.E+00  13.E-06  28.E+01     1.   110.
 5.39E+01 7.21E+06 1285.6  21.E+08  57.E+02  14.E+00  16.E-06  51.E+01     1.    99.
 7.61E+01 6.73E+06 1357.7  24.E+08  57.E+02  14.E+00  18.E-06  90.E+01     1.    97.
 1.20E+02 6.05E+06 1475.7  29.E+08  57.E+02  14.E+00  13.E-06  15.E+02     1.    97.
 2.25E+02 4.98E+06 1689.2  35.E+08  57.E+02  00.E+00  00.E+00  16.E+02     1.   104.
 4.50E+02 3.63E+06 2005.1  44.E+08  57.E+02  00.E+00  00.E+00  16.E+02     1.   115.
 7.50E+02 2.49E+06 2281.1  44.E+08  57.E+02  00.E+00  00.E+00  16.E+02     1.   149.
 1.15E+03 1.41E+06 2533.9  44.E+08  57.E+02  00.E+00  00.E+00  16.E+02     1.   184.
 1.60E+03 4.99E+05 2742.6  44.E+08  57.E+02  00.E+00  00.E+00  16.E+02     1.   216.
 1.85E+03 7.41E+04 2837.4  44.E+08  57.E+02  00.E+00  00.E+00  16.E+02     1.   232.
